# PbSO4 D1A(ILL)(Rietveld Refinement Round Robin, R.J. Hill, JApC 25, 589 (1992)
       40.0000          630.0000         10.2470
       40.0500          739.0000         11.0980
       40.1000          851.0000         11.9094
       40.1500          976.0000         12.7541
       40.2000         1076.0000         13.3915
       40.2500         1161.0000         13.9104
       40.3000         1222.0000         14.2712
       40.3500         1227.0000         14.3003
       40.4000         1187.0000         14.0653
       40.4500         1096.0000         13.5154
       40.5000          964.0000         12.6754
       40.5500          833.0000         11.7828
       40.6000          708.0000         10.8628
       40.6500          587.0000          9.8911
       40.7000          512.0000          9.2376
       40.7500          436.0000          8.5245
       40.8000          391.0000          8.0726
       40.8500          384.0000          8.0000
       40.9000          370.0000          7.8528
       40.9500          391.0000          8.0726
       41.0000          419.0000          8.3566
       41.0500          448.0000          8.6410
       41.1000          490.0000          9.0370
       41.1500          567.0000          9.7211
       41.2000          626.0000         10.2144
       41.2500          687.0000         10.7005
       41.3000          735.0000         11.0680
       41.3500          780.0000         11.4018
       41.4000          782.0000         11.4164
       41.4500          745.0000         11.1430
       41.5000          721.0000         10.9621
       41.5500          662.0000         10.5040
       41.6000          595.0000          9.9582
       41.6500          527.0000          9.3719
       41.7000          446.0000          8.6217
       41.7500          393.0000          8.0932
       41.8000          335.0000          7.4722
       41.8500          301.0000          7.0828
       41.9000          276.0000          6.7823
       41.9500          251.0000          5.9881
       42.0000          242.0000          5.8797
       42.0500          229.0000          5.7196
       42.1000          209.0000          5.4642
       42.1500          215.0000          5.5420
       42.2000          218.0000          5.5806
       42.2500          214.0000          5.5291
       42.3000          209.0000          5.4642
       42.3500          208.0000          5.4511
       42.4000          212.0000          5.5032
       42.4500          210.0000          5.4772
       42.5000          209.0000          5.4642
       42.5500          210.0000          5.4772
       42.6000          205.0000          5.4116
       42.6500          209.0000          5.4642
       42.7000          211.0000          5.4903
       42.7500          211.0000          5.4903
       42.8000          216.0000          5.5549
       42.8500          205.0000          5.4116
       42.9000          204.0000          5.3984
       42.9500          202.0000          5.3719
       43.0000          201.0000          5.3586
       43.0500          200.0000          5.3452
       43.1000          207.0000          5.4380
       43.1500          205.0000          5.4116
       43.2000          202.0000          5.3719
       43.2500          209.0000          5.4642
       43.3000          202.0000          5.3719
       43.3500          203.0000          5.3852
       43.4000          206.0000          5.4248
       43.4500          206.0000          5.4248
       43.5000          200.0000          5.3452
       43.5500          194.0000          5.2644
       43.6000          199.0000          5.3318
       43.6500          204.0000          5.3984
       43.7000          205.0000          5.4116
       43.7500          210.0000          5.4772
       43.8000          207.0000          5.4380
       43.8500          205.0000          5.4116
       43.9000          210.0000          5.4772
       43.9500          204.0000          5.3984
       44.0000          203.0000          5.3852
       44.0500          202.0000          5.3719
       44.1000          205.0000          5.4116
       44.1500          201.0000          5.3586
       44.2000          201.0000          5.3586
       44.2500          207.0000          5.4380
       44.3000          197.0000          5.3050
       44.3500          198.0000          5.3184
       44.4000          203.0000          5.3852
       44.4500          209.0000          5.4642
       44.5000          209.0000          5.4642
       44.5500          208.0000          5.4511
       44.6000          204.0000          5.3984
       44.6500          209.0000          5.4642
       44.7000          199.0000          5.3318
       44.7500          204.0000          5.3984
       44.8000          206.0000          5.4248
       44.8500          201.0000          5.3586
       44.9000          205.0000          5.4116
       44.9500          202.0000          5.3719
       45.0000          204.0000          5.3984
