10.05 214.0 15.0 
10.1 219.0 15.0 
10.15 224.0 15.0 
10.2 198.0 14.0 
10.25 229.0 15.0 
10.3 224.0 15.0 
10.35 216.0 15.0 
10.4 202.0 14.0 
10.45 229.0 15.0 
10.5 202.0 14.0 
10.55 215.0 15.0 
10.6 215.0 15.0 
10.65 196.0 14.0 
10.7 235.0 15.0 
10.75 207.0 14.0 
10.8 205.0 14.0 
10.85 238.0 15.0 
10.9 202.0 14.0 
10.95 213.0 15.0 
11.0 226.0 15.0 
11.05 198.0 14.0 
11.1 222.0 15.0 
11.15 186.0 14.0 
11.2 216.0 15.0 
11.25 218.0 15.0 
11.3 225.0 15.0 
11.35 200.0 14.0 
11.4 196.0 14.0 
11.45 224.0 15.0 
11.5 199.0 14.0 
11.55 204.0 14.0 
11.6 189.0 14.0 
11.65 211.0 15.0 
11.7 190.0 14.0 
11.75 184.0 14.0 
11.8 204.0 14.0 
11.85 204.0 14.0 
11.9 219.0 15.0 
11.95 207.0 14.0 
12.0 227.0 15.0 
12.05 211.0 10.0 
12.1 193.0 10.0 
12.15 206.0 10.0 
12.2 208.0 10.0 
12.25 191.0 10.0 
12.3 194.0 10.0 
12.35 185.0 10.0 
12.4 200.0 10.0 
12.45 203.0 10.0 
12.5 197.0 10.0 
12.55 203.0 10.0 
12.6 200.0 10.0 
12.65 200.0 10.0 
12.7 205.0 10.0 
12.75 208.0 10.0 
12.8 205.0 10.0 
12.85 201.0 10.0 
12.9 221.0 11.0 
12.95 218.0 10.0 
13.0 218.0 10.0 
13.05 216.0 10.0 
13.1 202.0 10.0 
13.15 206.0 10.0 
13.2 197.0 10.0 
13.25 210.0 10.0 
13.3 199.0 10.0 
13.35 219.0 10.0 
13.4 192.0 10.0 
13.45 211.0 10.0 
13.5 199.0 10.0 
13.55 196.0 10.0 
13.6 195.0 10.0 
13.65 203.0 10.0 
13.7 202.0 10.0 
13.75 200.0 10.0 
13.8 199.0 10.0 
13.85 191.0 10.0 
13.9 204.0 10.0 
13.95 191.0 10.0 
14.0 200.0 10.0 
14.05 199.0 10.0 
14.1 197.0 10.0 
14.15 202.0 10.0 
14.2 210.0 10.0 
14.25 202.0 10.0 
14.3 198.0 10.0 
14.35 191.0 10.0 
14.4 194.0 10.0 
14.45 198.0 10.0 
14.5 194.0 10.0 
14.55 193.0 10.0 
14.6 212.0 10.0 
14.65 214.0 10.0 
14.7 197.0 10.0 
14.75 195.0 10.0 
14.8 205.0 10.0 
14.85 209.0 10.0 
14.9 203.0 10.0 
14.95 197.0 10.0 
15.0 191.0 10.0 
15.05 192.0 10.0 
15.1 215.0 10.0 
15.15 194.0 10.0 
15.2 189.0 10.0 
15.25 188.0 10.0 
15.3 202.0 10.0 
15.35 201.0 10.0 
15.4 198.0 10.0 
15.45 208.0 10.0 
15.5 197.0 10.0 
15.55 187.0 10.0 
15.6 187.0 10.0 
15.65 190.0 10.0 
15.7 197.0 10.0 
15.75 200.0 10.0 
15.8 193.0 10.0 
15.85 180.0 9.0 
15.9 194.0 10.0 
15.95 206.0 10.0 
16.0 195.0 10.0 
16.05 193.0 10.0 
16.1 205.0 10.0 
16.15 194.0 10.0 
16.2 196.0 10.0 
16.25 194.0 10.0 
16.3 199.0 10.0 
16.35 207.0 10.0 
16.4 188.0 10.0 
16.45 203.0 10.0 
16.5 188.0 10.0 
16.55 180.0 9.0 
16.6 198.0 10.0 
16.65 200.0 10.0 
16.7 201.0 10.0 
16.75 210.0 10.0 
16.8 206.0 10.0 
16.85 189.0 10.0 
16.9 194.0 10.0 
16.95 187.0 10.0 
17.0 195.0 10.0 
17.05 201.0 10.0 
17.1 197.0 10.0 
17.15 206.0 10.0 
17.2 208.0 10.0 
17.25 199.0 10.0 
17.3 192.0 10.0 
17.35 193.0 10.0 
17.4 204.0 10.0 
17.45 201.0 10.0 
17.5 200.0 10.0 
17.55 177.0 9.0 
17.6 193.0 10.0 
17.65 199.0 10.0 
17.7 201.0 10.0 
17.75 194.0 10.0 
17.8 184.0 10.0 
17.85 192.0 10.0 
17.9 199.0 10.0 
17.95 190.0 10.0 
18.0 183.0 10.0 
18.05 189.0 8.0 
18.1 196.0 8.0 
18.15 196.0 8.0 
18.2 198.0 8.0 
18.25 210.0 8.0 
18.3 212.0 8.0 
18.35 219.0 9.0 
18.4 198.0 8.0 
18.45 195.0 8.0 
18.5 198.0 8.0 
18.55 191.0 8.0 
18.6 193.0 8.0 
18.65 197.0 8.0 
18.7 194.0 8.0 
18.75 187.0 8.0 
18.8 209.0 8.0 
18.85 187.0 8.0 
18.9 198.0 8.0 
18.95 206.0 8.0 
19.0 197.0 8.0 
19.05 191.0 8.0 
19.1 200.0 8.0 
19.15 207.0 8.0 
19.2 205.0 8.0 
19.25 198.0 8.0 
19.3 196.0 8.0 
19.35 209.0 8.0 
19.4 211.0 8.0 
19.45 203.0 8.0 
19.5 200.0 8.0 
19.55 192.0 8.0 
19.6 208.0 8.0 
19.65 213.0 8.0 
19.7 221.0 9.0 
19.75 216.0 8.0 
19.8 226.0 9.0 
19.85 228.0 9.0 
19.9 228.0 9.0 
19.95 215.0 8.0 
20.0 224.0 9.0 
20.05 226.0 9.0 
20.1 213.0 8.0 
20.15 239.0 9.0 
20.2 250.0 9.0 
20.25 247.0 9.0 
20.3 240.0 9.0 
20.35 231.0 9.0 
20.4 236.0 9.0 
20.45 223.0 9.0 
20.5 231.0 9.0 
20.55 226.0 9.0 
20.6 214.0 8.0 
20.65 208.0 8.0 
20.7 214.0 8.0 
20.75 196.0 8.0 
20.8 204.0 8.0 
20.85 199.0 8.0 
20.9 186.0 8.0 
20.95 192.0 8.0 
21.0 199.0 8.0 
21.05 200.0 8.0 
21.1 184.0 8.0 
21.15 184.0 8.0 
21.2 189.0 8.0 
21.25 182.0 8.0 
21.3 184.0 8.0 
21.35 185.0 8.0 
21.4 195.0 8.0 
21.45 190.0 8.0 
21.5 194.0 8.0 
21.55 185.0 8.0 
21.6 183.0 8.0 
21.65 193.0 8.0 
21.7 194.0 8.0 
21.75 193.0 8.0 
21.8 188.0 8.0 
21.85 191.0 8.0 
21.9 189.0 8.0 
21.95 188.0 8.0 
22.0 201.0 8.0 
22.05 195.0 8.0 
22.1 205.0 8.0 
22.15 200.0 8.0 
22.2 200.0 8.0 
22.25 192.0 8.0 
22.3 197.0 8.0 
22.35 204.0 8.0 
22.4 207.0 8.0 
22.45 192.0 8.0 
22.5 201.0 8.0 
22.55 190.0 8.0 
22.6 195.0 8.0 
22.65 194.0 8.0 
22.7 182.0 8.0 
22.75 189.0 8.0 
22.8 196.0 8.0 
22.85 196.0 8.0 
22.9 200.0 8.0 
22.95 190.0 8.0 
23.0 183.0 8.0 
23.05 199.0 8.0 
23.1 187.0 8.0 
23.15 196.0 8.0 
23.2 191.0 8.0 
23.25 191.0 8.0 
23.3 195.0 8.0 
23.35 194.0 8.0 
23.4 192.0 8.0 
23.45 182.0 8.0 
23.5 188.0 8.0 
23.55 203.0 8.0 
23.6 187.0 8.0 
23.65 192.0 8.0 
23.7 206.0 8.0 
23.75 201.0 8.0 
23.8 184.0 8.0 
23.85 192.0 8.0 
23.9 205.0 8.0 
23.95 196.0 8.0 
24.0 193.0 8.0 
24.05 194.0 7.0 
24.1 195.0 7.0 
24.15 194.0 7.0 
24.2 201.0 7.0 
24.25 193.0 7.0 
24.3 176.0 7.0 
24.35 187.0 7.0 
24.4 188.0 7.0 
24.45 196.0 7.0 
24.5 192.0 7.0 
24.55 185.0 7.0 
24.6 195.0 7.0 
24.65 198.0 7.0 
24.7 205.0 7.0 
24.75 200.0 7.0 
24.8 208.0 7.0 
24.85 195.0 7.0 
24.9 187.0 7.0 
24.95 193.0 7.0 
25.0 197.0 7.0 
25.05 202.0 7.0 
25.1 193.0 7.0 
25.15 196.0 7.0 
25.2 202.0 7.0 
25.25 201.0 7.0 
25.3 197.0 7.0 
25.35 204.0 7.0 
25.4 208.0 7.0 
25.45 206.0 7.0 
25.5 212.0 7.0 
25.55 207.0 7.0 
25.6 207.0 7.0 
25.65 212.0 7.0 
25.7 216.0 7.0 
25.75 218.0 7.0 
25.8 221.0 7.0 
25.85 218.0 7.0 
25.9 207.0 7.0 
25.95 203.0 7.0 
26.0 204.0 7.0 
26.05 202.0 7.0 
26.1 206.0 7.0 
26.15 202.0 7.0 
26.2 202.0 7.0 
26.25 181.0 7.0 
26.3 193.0 7.0 
26.35 205.0 7.0 
26.4 198.0 7.0 
26.45 196.0 7.0 
26.5 197.0 7.0 
26.55 195.0 7.0 
26.6 201.0 7.0 
26.65 205.0 7.0 
26.7 195.0 7.0 
26.75 196.0 7.0 
26.8 196.0 7.0 
26.85 205.0 7.0 
26.9 198.0 7.0 
26.95 200.0 7.0 
27.0 199.0 7.0 
27.05 180.0 7.0 
27.1 187.0 7.0 
27.15 193.0 7.0 
27.2 197.0 7.0 
27.25 197.0 7.0 
27.3 196.0 7.0 
27.35 194.0 7.0 
27.4 197.0 7.0 
27.45 204.0 7.0 
27.5 201.0 7.0 
27.55 187.0 7.0 
27.6 191.0 7.0 
27.65 205.0 7.0 
27.7 200.0 7.0 
27.75 198.0 7.0 
27.8 200.0 7.0 
27.85 204.0 7.0 
27.9 196.0 7.0 
27.95 195.0 7.0 
28.0 194.0 7.0 
28.05 200.0 7.0 
28.1 198.0 7.0 
28.15 201.0 7.0 
28.2 208.0 7.0 
28.25 205.0 7.0 
28.3 211.0 7.0 
28.35 211.0 7.0 
28.4 220.0 7.0 
28.45 220.0 7.0 
28.5 212.0 7.0 
28.55 208.0 7.0 
28.6 214.0 7.0 
28.65 226.0 8.0 
28.7 235.0 8.0 
28.75 233.0 8.0 
28.8 237.0 8.0 
28.85 242.0 8.0 
28.9 242.0 8.0 
28.95 245.0 8.0 
29.0 239.0 8.0 
29.05 226.0 8.0 
29.1 232.0 8.0 
29.15 238.0 8.0 
29.2 226.0 8.0 
29.25 218.0 7.0 
29.3 218.0 7.0 
29.35 214.0 7.0 
29.4 205.0 7.0 
29.45 200.0 7.0 
29.5 193.0 7.0 
29.55 195.0 7.0 
29.6 196.0 7.0 
29.65 195.0 7.0 
29.7 207.0 7.0 
29.75 215.0 7.0 
29.8 207.0 7.0 
29.85 218.0 7.0 
29.9 218.0 7.0 
29.95 220.0 7.0 
30.0 220.0 7.0 
30.05 229.0 7.0 
30.1 236.0 7.0 
30.15 254.0 7.0 
30.2 264.0 7.0 
30.25 280.0 7.0 
30.3 289.0 8.0 
30.35 289.0 8.0 
30.4 303.0 8.0 
30.45 302.0 8.0 
30.5 297.0 8.0 
30.55 281.0 7.0 
30.6 278.0 7.0 
30.65 280.0 7.0 
30.7 265.0 7.0 
30.75 258.0 7.0 
30.8 243.0 7.0 
30.85 240.0 7.0 
30.9 232.0 7.0 
30.95 231.0 7.0 
31.0 233.0 7.0 
31.05 246.0 7.0 
31.1 248.0 7.0 
31.15 249.0 7.0 
31.2 256.0 7.0 
31.25 272.0 7.0 
31.3 289.0 8.0 
31.35 311.0 8.0 
31.4 340.0 8.0 
31.45 363.0 9.0 
31.5 393.0 9.0 
31.55 440.0 9.0 
31.6 474.0 10.0 
31.65 482.0 10.0 
31.7 492.0 10.0 
31.75 508.0 10.0 
31.8 494.0 10.0 
31.85 475.0 10.0 
31.9 439.0 9.0 
31.95 413.0 9.0 
32.0 368.0 9.0 
32.05 331.0 8.0 
32.1 299.0 8.0 
32.15 286.0 8.0 
32.2 262.0 7.0 
32.25 241.0 7.0 
32.3 238.0 7.0 
32.35 252.0 7.0 
32.4 267.0 7.0 
32.45 276.0 7.0 
32.5 278.0 7.0 
32.55 300.0 8.0 
32.6 325.0 8.0 
32.65 336.0 8.0 
32.7 359.0 8.0 
32.75 405.0 9.0 
32.8 458.0 10.0 
32.85 501.0 10.0 
32.9 564.0 11.0 
32.95 640.0 11.0 
33.0 719.0 12.0 
33.05 783.0 13.0 
33.1 837.0 13.0 
33.15 851.0 13.0 
33.2 866.0 13.0 
33.25 828.0 13.0 
33.3 763.0 12.0 
33.35 697.0 12.0 
33.4 634.0 11.0 
33.45 541.0 10.0 
33.5 465.0 10.0 
33.55 391.0 9.0 
33.6 351.0 8.0 
33.65 301.0 8.0 
33.7 284.0 8.0 
33.75 260.0 7.0 
33.8 248.0 7.0 
33.85 257.0 7.0 
33.9 242.0 7.0 
33.95 246.0 7.0 
34.0 263.0 7.0 
34.05 271.0 7.0 
34.1 281.0 7.0 
34.15 302.0 8.0 
34.2 309.0 8.0 
34.25 335.0 8.0 
34.3 342.0 8.0 
34.35 345.0 8.0 
34.4 356.0 8.0 
34.45 351.0 8.0 
34.5 341.0 8.0 
34.55 334.0 8.0 
34.6 321.0 8.0 
34.65 286.0 8.0 
34.7 268.0 7.0 
34.75 256.0 7.0 
34.8 238.0 7.0 
34.85 229.0 7.0 
34.9 218.0 7.0 
34.95 223.0 7.0 
35.0 216.0 7.0 
35.05 203.0 6.0 
35.1 203.0 6.0 
35.15 194.0 6.0 
35.2 205.0 6.0 
35.25 196.0 6.0 
35.3 193.0 6.0 
35.35 206.0 6.0 
35.4 201.0 6.0 
35.45 201.0 6.0 
35.5 201.0 6.0 
35.55 200.0 6.0 
35.6 194.0 6.0 
35.65 196.0 6.0 
35.7 203.0 6.0 
35.75 195.0 6.0 
35.8 196.0 6.0 
35.85 211.0 6.0 
35.9 216.0 7.0 
35.95 207.0 6.0 
36.0 215.0 7.0 
36.05 221.0 7.0 
36.1 237.0 6.0 
36.15 248.0 6.0 
36.2 261.0 7.0 
36.25 279.0 7.0 
36.3 319.0 7.0 
36.35 337.0 7.0 
36.4 364.0 8.0 
36.45 423.0 8.0 
36.5 489.0 9.0 
36.55 557.0 10.0 
36.6 630.0 10.0 
36.65 729.0 11.0 
36.7 822.0 12.0 
36.75 943.0 13.0 
36.8 1059.0 13.0 
36.85 1196.0 14.0 
36.9 1235.0 14.0 
36.95 1220.0 14.0 
37.0 1209.0 14.0 
37.05 1128.0 14.0 
37.1 1001.0 13.0 
37.15 864.0 12.0 
37.2 729.0 11.0 
37.25 601.0 10.0 
37.3 496.0 9.0 
37.35 418.0 8.0 
37.4 355.0 8.0 
37.45 313.0 7.0 
37.5 263.0 7.0 
37.55 246.0 6.0 
37.6 226.0 6.0 
37.65 214.0 6.0 
37.7 222.0 6.0 
37.75 222.0 6.0 
37.8 211.0 6.0 
37.85 211.0 6.0 
37.9 202.0 6.0 
37.95 198.0 6.0 
38.0 192.0 6.0 
38.05 193.0 6.0 
38.1 196.0 6.0 
38.15 201.0 6.0 
38.2 203.0 6.0 
38.25 203.0 6.0 
38.3 201.0 6.0 
38.35 198.0 6.0 
38.4 196.0 6.0 
38.45 206.0 6.0 
38.5 210.0 6.0 
38.55 197.0 6.0 
38.6 204.0 6.0 
38.65 200.0 6.0 
38.7 205.0 6.0 
38.75 196.0 6.0 
38.8 195.0 6.0 
38.85 205.0 6.0 
38.9 204.0 6.0 
38.95 200.0 6.0 
39.0 203.0 6.0 
39.05 208.0 6.0 
39.1 207.0 6.0 
39.15 202.0 6.0 
39.2 203.0 6.0 
39.25 198.0 6.0 
39.3 204.0 6.0 
39.35 210.0 6.0 
39.4 216.0 6.0 
39.45 210.0 6.0 
39.5 229.0 6.0 
39.55 239.0 6.0 
39.6 247.0 6.0 
39.65 278.0 7.0 
39.7 302.0 7.0 
39.75 324.0 7.0 
39.8 371.0 8.0 
39.85 420.0 8.0 
39.9 465.0 9.0 
39.95 538.0 9.0 
40.0 630.0 10.0 
40.05 739.0 11.0 
40.1 851.0 12.0 
40.15 976.0 13.0 
40.2 1076.0 13.0 
40.25 1161.0 14.0 
40.3 1222.0 14.0 
40.35 1227.0 14.0 
40.4 1187.0 14.0 
40.45 1096.0 14.0 
40.5 964.0 13.0 
40.55 833.0 12.0 
40.6 708.0 11.0 
40.65 587.0 10.0 
40.7 512.0 9.0 
40.75 436.0 9.0 
40.8 391.0 8.0 
40.85 384.0 8.0 
40.9 370.0 8.0 
40.95 391.0 8.0 
41.0 419.0 8.0 
41.05 448.0 9.0 
41.1 490.0 9.0 
41.15 567.0 10.0 
41.2 626.0 10.0 
41.25 687.0 11.0 
41.3 735.0 11.0 
41.35 780.0 11.0 
41.4 782.0 11.0 
41.45 745.0 11.0 
41.5 721.0 11.0 
41.55 662.0 11.0 
41.6 595.0 10.0 
41.65 527.0 9.0 
41.7 446.0 9.0 
41.75 393.0 8.0 
41.8 335.0 7.0 
41.85 301.0 7.0 
41.9 276.0 7.0 
41.95 251.0 6.0 
42.0 242.0 6.0 
42.05 229.0 6.0 
42.1 209.0 5.0 
42.15 215.0 6.0 
42.2 218.0 6.0 
42.25 214.0 6.0 
42.3 209.0 5.0 
42.35 208.0 5.0 
42.4 212.0 6.0 
42.45 210.0 5.0 
42.5 209.0 5.0 
42.55 210.0 5.0 
42.6 205.0 5.0 
42.65 209.0 5.0 
42.7 211.0 5.0 
42.75 211.0 5.0 
42.8 216.0 6.0 
42.85 205.0 5.0 
42.9 204.0 5.0 
42.95 202.0 5.0 
43.0 201.0 5.0 
43.05 200.0 5.0 
43.1 207.0 5.0 
43.15 205.0 5.0 
43.2 202.0 5.0 
43.25 209.0 5.0 
43.3 202.0 5.0 
43.35 203.0 5.0 
43.4 206.0 5.0 
43.45 206.0 5.0 
43.5 200.0 5.0 
43.55 194.0 5.0 
43.6 199.0 5.0 
43.65 204.0 5.0 
43.7 205.0 5.0 
43.75 210.0 5.0 
43.8 207.0 5.0 
43.85 205.0 5.0 
43.9 210.0 5.0 
43.95 204.0 5.0 
44.0 203.0 5.0 
44.05 202.0 5.0 
44.1 205.0 5.0 
44.15 201.0 5.0 
44.2 201.0 5.0 
44.25 207.0 5.0 
44.3 197.0 5.0 
44.35 198.0 5.0 
44.4 203.0 5.0 
44.45 209.0 5.0 
44.5 209.0 5.0 
44.55 208.0 5.0 
44.6 204.0 5.0 
44.65 209.0 5.0 
44.7 199.0 5.0 
44.75 204.0 5.0 
44.8 206.0 5.0 
44.85 201.0 5.0 
44.9 205.0 5.0 
44.95 202.0 5.0 
45.0 204.0 5.0 
45.05 198.0 5.0 
45.1 198.0 5.0 
45.15 213.0 6.0 
45.2 210.0 5.0 
45.25 212.0 6.0 
45.3 214.0 6.0 
45.35 215.0 6.0 
45.4 217.0 6.0 
45.45 210.0 5.0 
45.5 214.0 6.0 
45.55 215.0 6.0 
45.6 215.0 6.0 
45.65 215.0 6.0 
45.7 217.0 6.0 
45.75 222.0 6.0 
45.8 231.0 6.0 
45.85 247.0 6.0 
45.9 252.0 6.0 
45.95 273.0 6.0 
46.0 304.0 7.0 
46.05 332.0 7.0 
46.1 366.0 7.0 
46.15 408.0 8.0 
46.2 463.0 8.0 
46.25 532.0 9.0 
46.3 619.0 9.0 
46.35 734.0 10.0 
46.4 828.0 11.0 
46.45 944.0 12.0 
46.5 1003.0 12.0 
46.55 1055.0 12.0 
46.6 1070.0 12.0 
46.65 1018.0 12.0 
46.7 944.0 12.0 
46.75 833.0 11.0 
46.8 725.0 10.0 
46.85 633.0 10.0 
46.9 507.0 9.0 
46.95 445.0 8.0 
47.0 379.0 7.0 
47.05 347.0 7.0 
47.1 316.0 7.0 
47.15 282.0 6.0 
47.2 267.0 6.0 
47.25 269.0 6.0 
47.3 281.0 6.0 
47.35 288.0 6.0 
47.4 300.0 7.0 
47.45 327.0 7.0 
47.5 346.0 7.0 
47.55 380.0 7.0 
47.6 400.0 8.0 
47.65 430.0 8.0 
47.7 453.0 8.0 
47.75 459.0 8.0 
47.8 451.0 8.0 
47.85 427.0 8.0 
47.9 402.0 8.0 
47.95 375.0 7.0 
48.0 344.0 7.0 
48.05 309.0 7.0 
48.1 277.0 6.0 
48.15 265.0 6.0 
48.2 246.0 6.0 
48.25 246.0 6.0 
48.3 230.0 5.0 
48.35 223.0 5.0 
48.4 227.0 5.0 
48.45 225.0 5.0 
48.5 217.0 5.0 
48.55 217.0 5.0 
48.6 223.0 5.0 
48.65 223.0 5.0 
48.7 220.0 5.0 
48.75 223.0 5.0 
48.8 226.0 5.0 
48.85 248.0 6.0 
48.9 258.0 6.0 
48.95 274.0 6.0 
49.0 297.0 6.0 
49.05 324.0 6.0 
49.1 355.0 7.0 
49.15 393.0 7.0 
49.2 458.0 8.0 
49.25 528.0 8.0 
49.3 589.0 9.0 
49.35 688.0 9.0 
49.4 781.0 10.0 
49.45 840.0 10.0 
49.5 876.0 10.0 
49.55 874.0 10.0 
49.6 832.0 10.0 
49.65 765.0 10.0 
49.7 682.0 9.0 
49.75 613.0 9.0 
49.8 524.0 8.0 
49.85 455.0 8.0 
49.9 408.0 7.0 
49.95 384.0 7.0 
50.0 366.0 7.0 
50.05 375.0 7.0 
50.1 392.0 7.0 
50.15 426.0 7.0 
50.2 470.0 8.0 
50.25 519.0 8.0 
50.3 588.0 9.0 
50.35 639.0 9.0 
50.4 681.0 9.0 
50.45 704.0 9.0 
50.5 693.0 9.0 
50.55 650.0 9.0 
50.6 600.0 9.0 
50.65 540.0 8.0 
50.7 478.0 8.0 
50.75 412.0 7.0 
50.8 376.0 7.0 
50.85 345.0 7.0 
50.9 330.0 6.0 
50.95 337.0 6.0 
51.0 350.0 7.0 
51.05 383.0 7.0 
51.1 426.0 7.0 
51.15 493.0 8.0 
51.2 571.0 8.0 
51.25 676.0 9.0 
51.3 803.0 10.0 
51.35 920.0 11.0 
51.4 1071.0 12.0 
51.45 1183.0 12.0 
51.5 1247.0 12.0 
51.55 1255.0 13.0 
51.6 1251.0 13.0 
51.65 1183.0 12.0 
51.7 1068.0 12.0 
51.75 945.0 11.0 
51.8 861.0 10.0 
51.85 811.0 10.0 
51.9 813.0 10.0 
51.95 872.0 10.0 
52.0 969.0 11.0 
52.05 1120.0 12.0 
52.1 1309.0 13.0 
52.15 1527.0 14.0 
52.2 1706.0 15.0 
52.25 1856.0 15.0 
52.3 1888.0 15.0 
52.35 1837.0 15.0 
52.4 1713.0 15.0 
52.45 1500.0 14.0 
52.5 1289.0 13.0 
52.55 1103.0 12.0 
52.6 904.0 11.0 
52.65 749.0 10.0 
52.7 627.0 9.0 
52.75 568.0 8.0 
52.8 551.0 8.0 
52.85 560.0 8.0 
52.9 586.0 9.0 
52.95 634.0 9.0 
53.0 691.0 9.0 
53.05 751.0 10.0 
53.1 799.0 10.0 
53.15 792.0 10.0 
53.2 820.0 10.0 
53.25 774.0 10.0 
53.3 736.0 10.0 
53.35 680.0 9.0 
53.4 627.0 9.0 
53.45 562.0 8.0 
53.5 514.0 8.0 
53.55 459.0 8.0 
53.6 424.0 7.0 
53.65 362.0 7.0 
53.7 333.0 6.0 
53.75 318.0 6.0 
53.8 300.0 6.0 
53.85 287.0 6.0 
53.9 265.0 6.0 
53.95 266.0 6.0 
54.0 262.0 6.0 
54.05 263.0 5.0 
54.1 255.0 5.0 
54.15 270.0 5.0 
54.2 278.0 6.0 
54.25 289.0 6.0 
54.3 317.0 6.0 
54.35 343.0 6.0 
54.4 400.0 7.0 
54.45 468.0 7.0 
54.5 561.0 8.0 
54.55 695.0 9.0 
54.6 873.0 10.0 
54.65 1100.0 11.0 
54.7 1372.0 12.0 
54.75 1660.0 14.0 
54.8 1954.0 15.0 
54.85 2224.0 16.0 
54.9 2400.0 16.0 
54.95 2459.0 17.0 
55.0 2435.0 16.0 
55.05 2245.0 16.0 
55.1 1986.0 15.0 
55.15 1671.0 14.0 
55.2 1358.0 12.0 
55.25 1086.0 11.0 
55.3 868.0 10.0 
55.35 682.0 9.0 
55.4 578.0 8.0 
55.45 521.0 8.0 
55.5 512.0 8.0 
55.55 537.0 8.0 
55.6 600.0 8.0 
55.65 704.0 9.0 
55.7 855.0 10.0 
55.75 1032.0 11.0 
55.8 1232.0 12.0 
55.85 1466.0 13.0 
55.9 1693.0 14.0 
55.95 1866.0 14.0 
56.0 1966.0 15.0 
56.05 2024.0 15.0 
56.1 2016.0 15.0 
56.15 1846.0 14.0 
56.2 1667.0 14.0 
56.25 1429.0 13.0 
56.3 1179.0 11.0 
56.35 950.0 10.0 
56.4 763.0 9.0 
56.45 599.0 8.0 
56.5 484.0 7.0 
56.55 404.0 7.0 
56.6 351.0 6.0 
56.65 304.0 6.0 
56.7 284.0 6.0 
56.75 273.0 6.0 
56.8 259.0 5.0 
56.85 251.0 5.0 
56.9 251.0 5.0 
56.95 252.0 5.0 
57.0 245.0 5.0 
57.05 259.0 5.0 
57.1 250.0 5.0 
57.15 253.0 5.0 
57.2 256.0 5.0 
57.25 264.0 5.0 
57.3 285.0 6.0 
57.35 301.0 6.0 
57.4 346.0 6.0 
57.45 390.0 7.0 
57.5 458.0 7.0 
57.55 528.0 8.0 
57.6 624.0 8.0 
57.65 733.0 9.0 
57.7 829.0 10.0 
57.75 916.0 10.0 
57.8 988.0 10.0 
57.85 994.0 11.0 
57.9 929.0 10.0 
57.95 843.0 10.0 
58.0 742.0 9.0 
58.05 638.0 8.0 
58.1 527.0 8.0 
58.15 434.0 7.0 
58.2 377.0 6.0 
58.25 320.0 6.0 
58.3 282.0 6.0 
58.35 273.0 6.0 
58.4 256.0 5.0 
58.45 243.0 5.0 
58.5 240.0 5.0 
58.55 240.0 5.0 
58.6 230.0 5.0 
58.65 220.0 5.0 
58.7 230.0 5.0 
58.75 227.0 5.0 
58.8 224.0 5.0 
58.85 219.0 5.0 
58.9 227.0 5.0 
58.95 227.0 5.0 
59.0 224.0 5.0 
59.05 222.0 5.0 
59.1 223.0 5.0 
59.15 217.0 5.0 
59.2 213.0 5.0 
59.25 216.0 5.0 
59.3 219.0 5.0 
59.35 219.0 5.0 
59.4 218.0 5.0 
59.45 220.0 5.0 
59.5 220.0 5.0 
59.55 220.0 5.0 
59.6 223.0 5.0 
59.65 233.0 5.0 
59.7 237.0 5.0 
59.75 249.0 5.0 
59.8 258.0 5.0 
59.85 261.0 5.0 
59.9 283.0 6.0 
59.95 304.0 6.0 
60.0 324.0 6.0 
60.05 347.0 6.0 
60.1 353.0 6.0 
60.15 359.0 6.0 
60.2 363.0 6.0 
60.25 352.0 6.0 
60.3 341.0 6.0 
60.35 330.0 6.0 
60.4 308.0 6.0 
60.45 291.0 5.0 
60.5 271.0 5.0 
60.55 254.0 5.0 
60.6 245.0 5.0 
60.65 245.0 5.0 
60.7 239.0 5.0 
60.75 228.0 5.0 
60.8 217.0 5.0 
60.85 217.0 5.0 
60.9 218.0 5.0 
60.95 223.0 5.0 
61.0 207.0 5.0 
61.05 218.0 5.0 
61.1 222.0 5.0 
61.15 215.0 5.0 
61.2 210.0 5.0 
61.25 216.0 5.0 
61.3 213.0 5.0 
61.35 212.0 5.0 
61.4 215.0 5.0 
61.45 212.0 5.0 
61.5 214.0 5.0 
61.55 211.0 5.0 
61.6 214.0 5.0 
61.65 217.0 5.0 
61.7 205.0 5.0 
61.75 207.0 5.0 
61.8 213.0 5.0 
61.85 208.0 5.0 
61.9 211.0 5.0 
61.95 205.0 5.0 
62.0 214.0 5.0 
62.05 213.0 5.0 
62.1 212.0 5.0 
62.15 212.0 5.0 
62.2 213.0 5.0 
62.25 207.0 5.0 
62.3 203.0 5.0 
62.35 211.0 5.0 
62.4 211.0 5.0 
62.45 214.0 5.0 
62.5 214.0 5.0 
62.55 207.0 5.0 
62.6 203.0 5.0 
62.65 212.0 5.0 
62.7 212.0 5.0 
62.75 214.0 5.0 
62.8 213.0 5.0 
62.85 202.0 4.0 
62.9 210.0 5.0 
62.95 211.0 5.0 
63.0 211.0 5.0 
63.05 214.0 5.0 
63.1 221.0 5.0 
63.15 217.0 5.0 
63.2 212.0 5.0 
63.25 214.0 5.0 
63.3 219.0 5.0 
63.35 223.0 5.0 
63.4 225.0 5.0 
63.45 227.0 5.0 
63.5 235.0 5.0 
63.55 240.0 5.0 
63.6 243.0 5.0 
63.65 252.0 5.0 
63.7 249.0 5.0 
63.75 249.0 5.0 
63.8 255.0 5.0 
63.85 262.0 5.0 
63.9 282.0 5.0 
63.95 308.0 6.0 
64.0 351.0 6.0 
64.05 398.0 6.0 
64.1 470.0 7.0 
64.15 525.0 7.0 
64.2 596.0 8.0 
64.25 646.0 8.0 
64.3 681.0 8.0 
64.35 665.0 8.0 
64.4 615.0 8.0 
64.45 563.0 8.0 
64.5 484.0 7.0 
64.55 421.0 6.0 
64.6 364.0 6.0 
64.65 317.0 6.0 
64.7 289.0 5.0 
64.75 261.0 5.0 
64.8 245.0 5.0 
64.85 233.0 5.0 
64.9 228.0 5.0 
64.95 219.0 5.0 
65.0 219.0 5.0 
65.05 217.0 5.0 
65.1 216.0 5.0 
65.15 221.0 5.0 
65.2 215.0 5.0 
65.25 215.0 5.0 
65.3 210.0 5.0 
65.35 212.0 5.0 
65.4 212.0 5.0 
65.45 204.0 5.0 
65.5 209.0 5.0 
65.55 206.0 5.0 
65.6 216.0 5.0 
65.65 207.0 5.0 
65.7 214.0 5.0 
65.75 207.0 5.0 
65.8 209.0 5.0 
65.85 218.0 5.0 
65.9 215.0 5.0 
65.95 222.0 5.0 
66.0 226.0 5.0 
66.05 230.0 5.0 
66.1 239.0 5.0 
66.15 249.0 5.0 
66.2 263.0 5.0 
66.25 275.0 5.0 
66.3 292.0 5.0 
66.35 317.0 6.0 
66.4 323.0 6.0 
66.45 341.0 6.0 
66.5 350.0 6.0 
66.55 330.0 6.0 
66.6 320.0 6.0 
66.65 307.0 6.0 
66.7 284.0 5.0 
66.75 275.0 5.0 
66.8 265.0 5.0 
66.85 269.0 5.0 
66.9 275.0 5.0 
66.95 292.0 5.0 
67.0 311.0 6.0 
67.05 338.0 6.0 
67.1 387.0 6.0 
67.15 413.0 6.0 
67.2 463.0 7.0 
67.25 510.0 7.0 
67.3 534.0 7.0 
67.35 559.0 7.0 
67.4 539.0 7.0 
67.45 533.0 7.0 
67.5 500.0 7.0 
67.55 471.0 7.0 
67.6 455.0 7.0 
67.65 410.0 6.0 
67.7 373.0 6.0 
67.75 342.0 6.0 
67.8 307.0 6.0 
67.85 288.0 5.0 
67.9 286.0 5.0 
67.95 281.0 5.0 
68.0 292.0 5.0 
68.05 291.0 5.0 
68.1 312.0 6.0 
68.15 326.0 6.0 
68.2 336.0 6.0 
68.25 346.0 6.0 
68.3 341.0 6.0 
68.35 327.0 6.0 
68.4 305.0 6.0 
68.45 277.0 5.0 
68.5 267.0 5.0 
68.55 249.0 5.0 
68.6 229.0 5.0 
68.65 221.0 5.0 
68.7 220.0 5.0 
68.75 217.0 5.0 
68.8 211.0 5.0 
68.85 204.0 5.0 
68.9 203.0 5.0 
68.95 220.0 5.0 
69.0 217.0 5.0 
69.05 217.0 5.0 
69.1 214.0 5.0 
69.15 205.0 5.0 
69.2 205.0 5.0 
69.25 211.0 5.0 
69.3 206.0 5.0 
69.35 208.0 5.0 
69.4 201.0 4.0 
69.45 208.0 5.0 
69.5 214.0 5.0 
69.55 212.0 5.0 
69.6 206.0 5.0 
69.65 216.0 5.0 
69.7 219.0 5.0 
69.75 215.0 5.0 
69.8 217.0 5.0 
69.85 211.0 5.0 
69.9 214.0 5.0 
69.95 215.0 5.0 
70.0 224.0 5.0 
70.05 217.0 5.0 
70.1 215.0 5.0 
70.15 218.0 5.0 
70.2 218.0 5.0 
70.25 228.0 5.0 
70.3 227.0 5.0 
70.35 228.0 5.0 
70.4 225.0 5.0 
70.45 219.0 5.0 
70.5 216.0 5.0 
70.55 219.0 5.0 
70.6 218.0 5.0 
70.65 214.0 5.0 
70.7 212.0 5.0 
70.75 221.0 5.0 
70.8 214.0 5.0 
70.85 208.0 5.0 
70.9 204.0 5.0 
70.95 209.0 5.0 
71.0 209.0 5.0 
71.05 208.0 5.0 
71.1 212.0 5.0 
71.15 213.0 5.0 
71.2 218.0 5.0 
71.25 212.0 5.0 
71.3 205.0 5.0 
71.35 207.0 5.0 
71.4 204.0 5.0 
71.45 206.0 5.0 
71.5 211.0 5.0 
71.55 216.0 5.0 
71.6 214.0 5.0 
71.65 210.0 5.0 
71.7 219.0 5.0 
71.75 222.0 5.0 
71.8 224.0 5.0 
71.85 231.0 5.0 
71.9 227.0 5.0 
71.95 237.0 5.0 
72.0 235.0 5.0 
72.05 238.0 5.0 
72.1 245.0 5.0 
72.15 242.0 5.0 
72.2 248.0 5.0 
72.25 246.0 5.0 
72.3 243.0 5.0 
72.35 253.0 5.0 
72.4 259.0 5.0 
72.45 278.0 5.0 
72.5 281.0 5.0 
72.55 297.0 5.0 
72.6 310.0 6.0 
72.65 324.0 6.0 
72.7 322.0 6.0 
72.75 311.0 6.0 
72.8 295.0 5.0 
72.85 281.0 5.0 
72.9 259.0 5.0 
72.95 250.0 5.0 
73.0 239.0 5.0 
73.05 233.0 5.0 
73.1 227.0 5.0 
73.15 226.0 5.0 
73.2 223.0 5.0 
73.25 211.0 5.0 
73.3 209.0 5.0 
73.35 217.0 5.0 
73.4 214.0 5.0 
73.45 213.0 5.0 
73.5 217.0 5.0 
73.55 220.0 5.0 
73.6 210.0 5.0 
73.65 209.0 5.0 
73.7 215.0 5.0 
73.75 218.0 5.0 
73.8 215.0 5.0 
73.85 217.0 5.0 
73.9 221.0 5.0 
73.95 217.0 5.0 
74.0 219.0 5.0 
74.05 220.0 5.0 
74.1 228.0 5.0 
74.15 229.0 5.0 
74.2 230.0 5.0 
74.25 234.0 5.0 
74.3 251.0 5.0 
74.35 261.0 5.0 
74.4 288.0 5.0 
74.45 313.0 6.0 
74.5 362.0 6.0 
74.55 424.0 7.0 
74.6 524.0 7.0 
74.65 646.0 8.0 
74.7 781.0 9.0 
74.75 920.0 10.0 
74.8 1024.0 10.0 
74.85 1120.0 11.0 
74.9 1187.0 11.0 
74.95 1187.0 11.0 
75.0 1166.0 11.0 
75.05 1114.0 11.0 
75.1 1044.0 10.0 
75.15 991.0 10.0 
75.2 927.0 10.0 
75.25 823.0 9.0 
75.3 717.0 8.0 
75.35 619.0 8.0 
75.4 520.0 7.0 
75.45 421.0 6.0 
75.5 353.0 6.0 
75.55 308.0 6.0 
75.6 273.0 5.0 
75.65 256.0 5.0 
75.7 245.0 5.0 
75.75 234.0 5.0 
75.8 230.0 5.0 
75.85 224.0 5.0 
75.9 232.0 5.0 
75.95 226.0 5.0 
76.0 222.0 5.0 
76.05 222.0 5.0 
76.1 227.0 5.0 
76.15 225.0 5.0 
76.2 226.0 5.0 
76.25 227.0 5.0 
76.3 229.0 5.0 
76.35 235.0 5.0 
76.4 233.0 5.0 
76.45 243.0 5.0 
76.5 238.0 5.0 
76.55 237.0 5.0 
76.6 236.0 5.0 
76.65 232.0 5.0 
76.7 231.0 5.0 
76.75 227.0 5.0 
76.8 225.0 5.0 
76.85 220.0 5.0 
76.9 218.0 5.0 
76.95 215.0 5.0 
77.0 219.0 5.0 
77.05 224.0 5.0 
77.1 225.0 5.0 
77.15 222.0 5.0 
77.2 231.0 5.0 
77.25 243.0 5.0 
77.3 250.0 5.0 
77.35 269.0 5.0 
77.4 286.0 5.0 
77.45 310.0 6.0 
77.5 325.0 6.0 
77.55 332.0 6.0 
77.6 337.0 6.0 
77.65 329.0 6.0 
77.7 303.0 6.0 
77.75 278.0 5.0 
77.8 268.0 5.0 
77.85 252.0 5.0 
77.9 236.0 5.0 
77.95 228.0 5.0 
78.0 219.0 5.0 
78.05 225.0 5.0 
78.1 222.0 5.0 
78.15 214.0 5.0 
78.2 228.0 5.0 
78.25 221.0 5.0 
78.3 217.0 5.0 
78.35 221.0 5.0 
78.4 222.0 5.0 
78.45 226.0 5.0 
78.5 237.0 5.0 
78.55 246.0 5.0 
78.6 255.0 5.0 
78.65 269.0 5.0 
78.7 284.0 5.0 
78.75 302.0 5.0 
78.8 313.0 6.0 
78.85 327.0 6.0 
78.9 321.0 6.0 
78.95 333.0 6.0 
79.0 331.0 6.0 
79.05 332.0 6.0 
79.1 358.0 6.0 
79.15 402.0 6.0 
79.2 460.0 7.0 
79.25 557.0 7.0 
79.3 660.0 8.0 
79.35 769.0 9.0 
79.4 859.0 9.0 
79.45 934.0 10.0 
79.5 955.0 10.0 
79.55 921.0 10.0 
79.6 824.0 9.0 
79.65 694.0 8.0 
79.7 578.0 8.0 
79.75 474.0 7.0 
79.8 402.0 6.0 
79.85 344.0 6.0 
79.9 306.0 6.0 
79.95 300.0 5.0 
80.0 292.0 5.0 
80.05 292.0 5.0 
80.1 302.0 5.0 
80.15 304.0 6.0 
80.2 306.0 6.0 
80.25 305.0 6.0 
80.3 303.0 6.0 
80.35 299.0 5.0 
80.4 278.0 5.0 
80.45 259.0 5.0 
80.5 257.0 5.0 
80.55 245.0 5.0 
80.6 237.0 5.0 
80.65 240.0 5.0 
80.7 233.0 5.0 
80.75 232.0 5.0 
80.8 235.0 5.0 
80.85 241.0 5.0 
80.9 257.0 5.0 
80.95 274.0 5.0 
81.0 292.0 5.0 
81.05 309.0 6.0 
81.1 333.0 6.0 
81.15 360.0 6.0 
81.2 381.0 6.0 
81.25 387.0 6.0 
81.3 387.0 6.0 
81.35 386.0 6.0 
81.4 382.0 6.0 
81.45 368.0 6.0 
81.5 363.0 6.0 
81.55 352.0 6.0 
81.6 337.0 6.0 
81.65 321.0 6.0 
81.7 297.0 5.0 
81.75 281.0 5.0 
81.8 265.0 5.0 
81.85 255.0 5.0 
81.9 251.0 5.0 
81.95 237.0 5.0 
82.0 238.0 5.0 
82.05 237.0 5.0 
82.1 228.0 5.0 
82.15 240.0 5.0 
82.2 234.0 5.0 
82.25 226.0 5.0 
82.3 229.0 5.0 
82.35 228.0 5.0 
82.4 233.0 5.0 
82.45 243.0 5.0 
82.5 241.0 5.0 
82.55 257.0 5.0 
82.6 279.0 5.0 
82.65 305.0 6.0 
82.7 345.0 6.0 
82.75 410.0 6.0 
82.8 455.0 7.0 
82.85 545.0 7.0 
82.9 622.0 8.0 
82.95 673.0 8.0 
83.0 725.0 9.0 
83.05 717.0 8.0 
83.1 661.0 8.0 
83.15 592.0 8.0 
83.2 518.0 7.0 
83.25 443.0 7.0 
83.3 371.0 6.0 
83.35 336.0 6.0 
83.4 290.0 5.0 
83.45 265.0 5.0 
83.5 252.0 5.0 
83.55 250.0 5.0 
83.6 244.0 5.0 
83.65 242.0 5.0 
83.7 241.0 5.0 
83.75 243.0 5.0 
83.8 248.0 5.0 
83.85 253.0 5.0 
83.9 252.0 5.0 
83.95 264.0 5.0 
84.0 266.0 5.0 
84.05 282.0 5.0 
84.1 291.0 5.0 
84.15 313.0 6.0 
84.2 346.0 6.0 
84.25 374.0 6.0 
84.3 415.0 6.0 
84.35 430.0 7.0 
84.4 433.0 7.0 
84.45 430.0 7.0 
84.5 406.0 6.0 
84.55 384.0 6.0 
84.6 349.0 6.0 
84.65 318.0 6.0 
84.7 307.0 6.0 
84.75 298.0 5.0 
84.8 296.0 5.0 
84.85 304.0 6.0 
84.9 313.0 6.0 
84.95 328.0 6.0 
85.0 346.0 6.0 
85.05 341.0 6.0 
85.1 335.0 6.0 
85.15 324.0 6.0 
85.2 336.0 6.0 
85.25 341.0 6.0 
85.3 341.0 6.0 
85.35 370.0 6.0 
85.4 414.0 6.0 
85.45 442.0 7.0 
85.5 490.0 7.0 
85.55 520.0 7.0 
85.6 532.0 7.0 
85.65 548.0 7.0 
85.7 561.0 7.0 
85.75 567.0 8.0 
85.8 585.0 8.0 
85.85 584.0 8.0 
85.9 558.0 7.0 
85.95 527.0 7.0 
86.0 481.0 7.0 
86.05 424.0 7.0 
86.1 370.0 6.0 
86.15 333.0 6.0 
86.2 312.0 6.0 
86.25 301.0 5.0 
86.3 307.0 6.0 
86.35 314.0 6.0 
86.4 340.0 6.0 
86.45 379.0 6.0 
86.5 427.0 7.0 
86.55 467.0 7.0 
86.6 535.0 7.0 
86.65 584.0 8.0 
86.7 602.0 8.0 
86.75 580.0 8.0 
86.8 532.0 7.0 
86.85 481.0 7.0 
86.9 426.0 7.0 
86.95 379.0 6.0 
87.0 329.0 6.0 
87.05 303.0 6.0 
87.1 288.0 5.0 
87.15 271.0 5.0 
87.2 269.0 5.0 
87.25 267.0 5.0 
87.3 263.0 5.0 
87.35 267.0 5.0 
87.4 260.0 5.0 
87.45 260.0 5.0 
87.5 263.0 5.0 
87.55 263.0 5.0 
87.6 270.0 5.0 
87.65 278.0 5.0 
87.7 293.0 5.0 
87.75 318.0 6.0 
87.8 364.0 6.0 
87.85 424.0 7.0 
87.9 512.0 7.0 
87.95 643.0 8.0 
88.0 817.0 9.0 
88.05 982.0 10.0 
88.1 1163.0 11.0 
88.15 1289.0 11.0 
88.2 1373.0 12.0 
88.25 1393.0 12.0 
88.3 1348.0 12.0 
88.35 1244.0 11.0 
88.4 1157.0 11.0 
88.45 1077.0 10.0 
88.5 1020.0 10.0 
88.55 965.0 10.0 
88.6 907.0 10.0 
88.65 858.0 9.0 
88.7 771.0 9.0 
88.75 647.0 8.0 
88.8 555.0 7.0 
88.85 468.0 7.0 
88.9 405.0 6.0 
88.95 348.0 6.0 
89.0 316.0 6.0 
89.05 291.0 5.0 
89.1 277.0 5.0 
89.15 278.0 5.0 
89.2 270.0 5.0 
89.25 262.0 5.0 
89.3 268.0 5.0 
89.35 270.0 5.0 
89.4 279.0 5.0 
89.45 287.0 5.0 
89.5 300.0 5.0 
89.55 319.0 6.0 
89.6 347.0 6.0 
89.65 378.0 6.0 
89.7 420.0 6.0 
89.75 469.0 7.0 
89.8 536.0 7.0 
89.85 645.0 8.0 
89.9 773.0 9.0 
89.95 925.0 10.0 
90.0 1115.0 11.0 
90.05 1254.0 11.0 
90.1 1367.0 12.0 
90.15 1400.0 12.0 
90.2 1327.0 12.0 
90.25 1188.0 11.0 
90.3 1038.0 10.0 
90.35 879.0 9.0 
90.4 738.0 9.0 
90.45 644.0 8.0 
90.5 594.0 8.0 
90.55 601.0 8.0 
90.6 643.0 8.0 
90.65 697.0 8.0 
90.7 786.0 9.0 
90.75 842.0 9.0 
90.8 847.0 9.0 
90.85 791.0 9.0 
90.9 702.0 8.0 
90.95 592.0 8.0 
91.0 508.0 7.0 
91.05 418.0 6.0 
91.1 362.0 6.0 
91.15 328.0 6.0 
91.2 299.0 5.0 
91.25 279.0 5.0 
91.3 270.0 5.0 
91.35 257.0 5.0 
91.4 253.0 5.0 
91.45 258.0 5.0 
91.5 257.0 5.0 
91.55 249.0 5.0 
91.6 245.0 5.0 
91.65 257.0 5.0 
91.7 260.0 5.0 
91.75 284.0 5.0 
91.8 296.0 5.0 
91.85 322.0 6.0 
91.9 343.0 6.0 
91.95 382.0 6.0 
92.0 405.0 6.0 
92.05 411.0 6.0 
92.1 416.0 6.0 
92.15 406.0 6.0 
92.2 372.0 6.0 
92.25 353.0 6.0 
92.3 330.0 6.0 
92.35 317.0 6.0 
92.4 313.0 6.0 
92.45 312.0 6.0 
92.5 309.0 6.0 
92.55 303.0 6.0 
92.6 288.0 5.0 
92.65 276.0 5.0 
92.7 264.0 5.0 
92.75 246.0 5.0 
92.8 249.0 5.0 
92.85 241.0 5.0 
92.9 251.0 5.0 
92.95 243.0 5.0 
93.0 246.0 5.0 
93.05 246.0 5.0 
93.1 249.0 5.0 
93.15 244.0 5.0 
93.2 252.0 5.0 
93.25 252.0 5.0 
93.3 258.0 5.0 
93.35 265.0 5.0 
93.4 263.0 5.0 
93.45 284.0 5.0 
93.5 299.0 5.0 
93.55 320.0 6.0 
93.6 344.0 6.0 
93.65 363.0 6.0 
93.7 372.0 6.0 
93.75 358.0 6.0 
93.8 351.0 6.0 
93.85 354.0 6.0 
93.9 330.0 6.0 
93.95 322.0 6.0 
94.0 334.0 6.0 
94.05 339.0 6.0 
94.1 345.0 6.0 
94.15 357.0 6.0 
94.2 360.0 6.0 
94.25 358.0 6.0 
94.3 372.0 6.0 
94.35 425.0 7.0 
94.4 511.0 7.0 
94.45 626.0 8.0 
94.5 770.0 9.0 
94.55 946.0 10.0 
94.6 1118.0 11.0 
94.65 1205.0 11.0 
94.7 1227.0 11.0 
94.75 1157.0 11.0 
94.8 1041.0 10.0 
94.85 873.0 9.0 
94.9 715.0 8.0 
94.95 562.0 7.0 
95.0 446.0 7.0 
95.05 377.0 6.0 
95.1 332.0 6.0 
95.15 297.0 5.0 
95.2 282.0 5.0 
95.25 276.0 5.0 
95.3 264.0 5.0 
95.35 261.0 5.0 
95.4 266.0 5.0 
95.45 261.0 5.0 
95.5 253.0 5.0 
95.55 258.0 5.0 
95.6 262.0 5.0 
95.65 260.0 5.0 
95.7 283.0 5.0 
95.75 307.0 6.0 
95.8 344.0 6.0 
95.85 402.0 6.0 
95.9 453.0 7.0 
95.95 529.0 7.0 
96.0 604.0 8.0 
96.05 661.0 8.0 
96.1 672.0 8.0 
96.15 629.0 8.0 
96.2 588.0 8.0 
96.25 510.0 7.0 
96.3 440.0 7.0 
96.35 377.0 6.0 
96.4 330.0 6.0 
96.45 301.0 5.0 
96.5 280.0 5.0 
96.55 269.0 5.0 
96.6 258.0 5.0 
96.65 252.0 5.0 
96.7 251.0 5.0 
96.75 252.0 5.0 
96.8 256.0 5.0 
96.85 253.0 5.0 
96.9 253.0 5.0 
96.95 253.0 5.0 
97.0 262.0 5.0 
97.05 265.0 5.0 
97.1 284.0 5.0 
97.15 291.0 5.0 
97.2 323.0 6.0 
97.25 374.0 6.0 
97.3 431.0 7.0 
97.35 511.0 7.0 
97.4 602.0 8.0 
97.45 678.0 8.0 
97.5 743.0 9.0 
97.55 756.0 9.0 
97.6 717.0 8.0 
97.65 657.0 8.0 
97.7 581.0 8.0 
97.75 490.0 7.0 
97.8 418.0 6.0 
97.85 364.0 6.0 
97.9 335.0 6.0 
97.95 306.0 6.0 
98.0 290.0 5.0 
98.05 286.0 5.0 
98.1 283.0 5.0 
98.15 283.0 5.0 
98.2 274.0 5.0 
98.25 262.0 5.0 
98.3 266.0 5.0 
98.35 261.0 5.0 
98.4 261.0 5.0 
98.45 264.0 5.0 
98.5 269.0 5.0 
98.55 278.0 5.0 
98.6 288.0 5.0 
98.65 306.0 6.0 
98.7 319.0 6.0 
98.75 330.0 6.0 
98.8 343.0 6.0 
98.85 341.0 6.0 
98.9 325.0 6.0 
98.95 318.0 6.0 
99.0 298.0 5.0 
99.05 299.0 5.0 
99.1 288.0 5.0 
99.15 309.0 6.0 
99.2 344.0 6.0 
99.25 382.0 6.0 
99.3 422.0 6.0 
99.35 470.0 7.0 
99.4 512.0 7.0 
99.45 514.0 7.0 
99.5 515.0 7.0 
99.55 488.0 7.0 
99.6 440.0 7.0 
99.65 396.0 6.0 
99.7 366.0 6.0 
99.75 332.0 6.0 
99.8 311.0 6.0 
99.85 305.0 6.0 
99.9 300.0 5.0 
99.95 293.0 5.0 
100.0 286.0 5.0 
100.05 306.0 6.0 
100.1 313.0 6.0 
100.15 317.0 6.0 
100.2 327.0 6.0 
100.25 343.0 6.0 
100.3 330.0 6.0 
100.35 320.0 6.0 
100.4 307.0 6.0 
100.45 298.0 5.0 
100.5 282.0 5.0 
100.55 274.0 5.0 
100.6 266.0 5.0 
100.65 274.0 5.0 
100.7 271.0 5.0 
100.75 274.0 5.0 
100.8 290.0 5.0 
100.85 302.0 5.0 
100.9 321.0 6.0 
100.95 350.0 6.0 
101.0 367.0 6.0 
101.05 386.0 6.0 
101.1 394.0 6.0 
101.15 370.0 6.0 
101.2 356.0 6.0 
101.25 332.0 6.0 
101.3 310.0 6.0 
101.35 288.0 5.0 
101.4 279.0 5.0 
101.45 281.0 5.0 
101.5 274.0 5.0 
101.55 284.0 5.0 
101.6 280.0 5.0 
101.65 270.0 5.0 
101.7 278.0 5.0 
101.75 269.0 5.0 
101.8 273.0 5.0 
101.85 268.0 5.0 
101.9 267.0 5.0 
101.95 265.0 5.0 
102.0 257.0 5.0 
102.05 258.0 5.0 
102.1 267.0 5.0 
102.15 267.0 5.0 
102.2 277.0 6.0 
102.25 287.0 6.0 
102.3 302.0 6.0 
102.35 332.0 6.0 
102.4 360.0 6.0 
102.45 411.0 7.0 
102.5 457.0 7.0 
102.55 524.0 8.0 
102.6 608.0 8.0 
102.65 699.0 9.0 
102.7 861.0 10.0 
102.75 1096.0 11.0 
102.8 1377.0 12.0 
102.85 1685.0 14.0 
102.9 1901.0 15.0 
102.95 2069.0 15.0 
103.0 2016.0 15.0 
103.05 1800.0 14.0 
103.1 1500.0 13.0 
103.15 1181.0 11.0 
103.2 937.0 10.0 
103.25 728.0 9.0 
103.3 629.0 8.0 
103.35 576.0 8.0 
103.4 556.0 8.0 
103.45 535.0 8.0 
103.5 519.0 8.0 
103.55 486.0 7.0 
103.6 465.0 7.0 
103.65 429.0 7.0 
103.7 385.0 7.0 
103.75 361.0 6.0 
103.8 342.0 6.0 
103.85 312.0 6.0 
103.9 293.0 6.0 
103.95 279.0 6.0 
104.0 277.0 6.0 
104.05 265.0 5.0 
104.1 257.0 5.0 
104.15 256.0 5.0 
104.2 250.0 5.0 
104.25 260.0 5.0 
104.3 261.0 5.0 
104.35 258.0 5.0 
104.4 263.0 5.0 
104.45 268.0 5.0 
104.5 284.0 6.0 
104.55 306.0 6.0 
104.6 325.0 6.0 
104.65 337.0 6.0 
104.7 337.0 6.0 
104.75 344.0 6.0 
104.8 340.0 6.0 
104.85 337.0 6.0 
104.9 328.0 6.0 
104.95 321.0 6.0 
105.0 306.0 6.0 
105.05 295.0 6.0 
105.1 289.0 6.0 
105.15 281.0 6.0 
105.2 267.0 5.0 
105.25 266.0 5.0 
105.3 270.0 5.0 
105.35 263.0 5.0 
105.4 256.0 5.0 
105.45 266.0 5.0 
105.5 264.0 5.0 
105.55 259.0 5.0 
105.6 261.0 5.0 
105.65 261.0 5.0 
105.7 258.0 5.0 
105.75 253.0 5.0 
105.8 248.0 5.0 
105.85 244.0 5.0 
105.9 249.0 5.0 
105.95 251.0 5.0 
106.0 245.0 5.0 
106.05 245.0 5.0 
106.1 247.0 5.0 
106.15 247.0 5.0 
106.2 254.0 5.0 
106.25 259.0 5.0 
106.3 250.0 5.0 
106.35 251.0 5.0 
106.4 258.0 5.0 
106.45 252.0 5.0 
106.5 255.0 5.0 
106.55 259.0 5.0 
106.6 256.0 5.0 
106.65 264.0 5.0 
106.7 268.0 5.0 
106.75 281.0 6.0 
106.8 303.0 6.0 
106.85 331.0 6.0 
106.9 371.0 6.0 
106.95 420.0 7.0 
107.0 484.0 7.0 
107.05 532.0 8.0 
107.1 576.0 8.0 
107.15 582.0 8.0 
107.2 563.0 8.0 
107.25 527.0 8.0 
107.3 490.0 7.0 
107.35 465.0 7.0 
107.4 467.0 7.0 
107.45 449.0 7.0 
107.5 416.0 7.0 
107.55 393.0 7.0 
107.6 366.0 6.0 
107.65 331.0 6.0 
107.7 316.0 6.0 
107.75 297.0 6.0 
107.8 294.0 6.0 
107.85 292.0 6.0 
107.9 286.0 6.0 
107.95 295.0 6.0 
108.0 306.0 6.0 
108.05 315.0 6.0 
108.1 334.0 6.0 
108.15 373.0 7.0 
108.2 406.0 7.0 
108.25 447.0 7.0 
108.3 499.0 8.0 
108.35 507.0 8.0 
108.4 506.0 8.0 
108.45 488.0 8.0 
108.5 432.0 7.0 
108.55 391.0 7.0 
108.6 342.0 7.0 
108.65 315.0 6.0 
108.7 292.0 6.0 
108.75 275.0 6.0 
108.8 274.0 6.0 
108.85 259.0 6.0 
108.9 250.0 6.0 
108.95 258.0 6.0 
109.0 252.0 6.0 
109.05 255.0 6.0 
109.1 254.0 6.0 
109.15 253.0 6.0 
109.2 254.0 6.0 
109.25 252.0 6.0 
109.3 257.0 6.0 
109.35 250.0 6.0 
109.4 255.0 6.0 
109.45 251.0 6.0 
109.5 254.0 6.0 
109.55 260.0 6.0 
109.6 249.0 6.0 
109.65 253.0 6.0 
109.7 254.0 6.0 
109.75 259.0 6.0 
109.8 268.0 6.0 
109.85 270.0 6.0 
109.9 284.0 6.0 
109.95 305.0 6.0 
110.0 322.0 6.0 
110.05 364.0 7.0 
110.1 417.0 7.0 
110.15 470.0 8.0 
110.2 573.0 8.0 
110.25 678.0 9.0 
110.3 771.0 10.0 
110.35 847.0 10.0 
110.4 854.0 10.0 
110.45 794.0 10.0 
110.5 720.0 9.0 
110.55 611.0 9.0 
110.6 520.0 8.0 
110.65 463.0 8.0 
110.7 412.0 7.0 
110.75 399.0 7.0 
110.8 416.0 7.0 
110.85 428.0 7.0 
110.9 432.0 7.0 
110.95 420.0 7.0 
111.0 402.0 7.0 
111.05 364.0 7.0 
111.1 348.0 7.0 
111.15 334.0 6.0 
111.2 321.0 6.0 
111.25 330.0 6.0 
111.3 342.0 7.0 
111.35 380.0 7.0 
111.4 385.0 7.0 
111.45 420.0 7.0 
111.5 441.0 7.0 
111.55 465.0 8.0 
111.6 444.0 7.0 
111.65 406.0 7.0 
111.7 383.0 7.0 
111.75 345.0 7.0 
111.8 332.0 6.0 
111.85 321.0 6.0 
111.9 308.0 6.0 
111.95 292.0 6.0 
112.0 303.0 6.0 
112.05 314.0 6.0 
112.1 333.0 6.0 
112.15 379.0 7.0 
112.2 438.0 7.0 
112.25 505.0 8.0 
112.3 594.0 9.0 
112.35 659.0 9.0 
112.4 717.0 9.0 
112.45 738.0 10.0 
112.5 710.0 9.0 
112.55 642.0 9.0 
112.6 547.0 8.0 
112.65 492.0 8.0 
112.7 421.0 7.0 
112.75 386.0 7.0 
112.8 344.0 7.0 
112.85 337.0 6.0 
112.9 350.0 7.0 
112.95 364.0 7.0 
113.0 415.0 7.0 
113.05 506.0 8.0 
113.1 586.0 9.0 
113.15 674.0 9.0 
113.2 750.0 10.0 
113.25 787.0 10.0 
113.3 753.0 10.0 
113.35 682.0 9.0 
113.4 597.0 9.0 
113.45 499.0 8.0 
113.5 417.0 7.0 
113.55 362.0 7.0 
113.6 340.0 7.0 
113.65 302.0 6.0 
113.7 286.0 6.0 
113.75 280.0 6.0 
113.8 283.0 6.0 
113.85 276.0 6.0 
113.9 282.0 6.0 
113.95 284.0 6.0 
114.0 295.0 6.0 
114.05 310.0 7.0 
114.1 319.0 7.0 
114.15 321.0 7.0 
114.2 304.0 7.0 
114.25 298.0 7.0 
114.3 293.0 6.0 
114.35 283.0 6.0 
114.4 277.0 6.0 
114.45 269.0 6.0 
114.5 265.0 6.0 
114.55 277.0 6.0 
114.6 283.0 6.0 
114.65 283.0 6.0 
114.7 293.0 6.0 
114.75 303.0 7.0 
114.8 320.0 7.0 
114.85 316.0 7.0 
114.9 331.0 7.0 
114.95 346.0 7.0 
115.0 327.0 7.0 
115.05 328.0 7.0 
115.1 306.0 7.0 
115.15 291.0 6.0 
115.2 286.0 6.0 
115.25 278.0 6.0 
115.3 273.0 6.0 
115.35 267.0 6.0 
115.4 272.0 6.0 
115.45 257.0 6.0 
115.5 260.0 6.0 
115.55 265.0 6.0 
115.6 264.0 6.0 
115.65 272.0 6.0 
115.7 270.0 6.0 
115.75 268.0 6.0 
115.8 269.0 6.0 
115.85 287.0 6.0 
115.9 292.0 6.0 
115.95 295.0 6.0 
116.0 317.0 7.0 
116.05 335.0 7.0 
116.1 364.0 7.0 
116.15 410.0 8.0 
116.2 477.0 8.0 
116.25 556.0 9.0 
116.3 642.0 10.0 
116.35 755.0 10.0 
116.4 864.0 11.0 
116.45 946.0 12.0 
116.5 970.0 12.0 
116.55 941.0 12.0 
116.6 870.0 11.0 
116.65 759.0 10.0 
116.7 647.0 10.0 
116.75 540.0 9.0 
116.8 468.0 8.0 
116.85 418.0 8.0 
116.9 379.0 7.0 
116.95 381.0 7.0 
117.0 405.0 8.0 
117.05 446.0 8.0 
117.1 476.0 8.0 
117.15 523.0 9.0 
117.2 561.0 9.0 
117.25 555.0 9.0 
117.3 529.0 9.0 
117.35 485.0 8.0 
117.4 436.0 8.0 
117.45 398.0 8.0 
117.5 355.0 7.0 
117.55 322.0 7.0 
117.6 304.0 7.0 
117.65 285.0 6.0 
117.7 270.0 6.0 
117.75 278.0 6.0 
117.8 260.0 6.0 
117.85 268.0 6.0 
117.9 264.0 6.0 
117.95 265.0 6.0 
118.0 263.0 6.0 
118.05 267.0 6.0 
118.1 286.0 6.0 
118.15 293.0 6.0 
118.2 291.0 6.0 
118.25 319.0 7.0 
118.3 366.0 7.0 
118.35 411.0 8.0 
118.4 461.0 8.0 
118.45 489.0 8.0 
118.5 521.0 9.0 
118.55 555.0 9.0 
118.6 550.0 9.0 
118.65 511.0 9.0 
118.7 486.0 8.0 
118.75 436.0 8.0 
118.8 392.0 7.0 
118.85 368.0 7.0 
118.9 330.0 7.0 
118.95 328.0 7.0 
119.0 343.0 7.0 
119.05 371.0 7.0 
119.1 394.0 8.0 
119.15 441.0 8.0 
119.2 468.0 8.0 
119.25 469.0 8.0 
119.3 456.0 8.0 
119.35 416.0 8.0 
119.4 394.0 8.0 
119.45 361.0 7.0 
119.5 330.0 7.0 
119.55 312.0 7.0 
119.6 293.0 6.0 
119.65 285.0 6.0 
119.7 286.0 6.0 
119.75 275.0 6.0 
119.8 274.0 6.0 
119.85 281.0 6.0 
119.9 279.0 6.0 
119.95 298.0 7.0 
120.0 312.0 7.0 
120.05 331.0 7.0 
120.1 375.0 8.0 
120.15 406.0 8.0 
120.2 452.0 9.0 
120.25 506.0 9.0 
120.3 546.0 10.0 
120.35 568.0 10.0 
120.4 589.0 10.0 
120.45 588.0 10.0 
120.5 537.0 9.0 
120.55 498.0 9.0 
120.6 463.0 9.0 
120.65 402.0 8.0 
120.7 386.0 8.0 
120.75 361.0 8.0 
120.8 350.0 8.0 
120.85 330.0 7.0 
120.9 338.0 8.0 
120.95 359.0 8.0 
121.0 364.0 8.0 
121.05 385.0 8.0 
121.1 436.0 9.0 
121.15 474.0 9.0 
121.2 544.0 10.0 
121.25 647.0 10.0 
121.3 695.0 11.0 
121.35 763.0 11.0 
121.4 802.0 12.0 
121.45 812.0 12.0 
121.5 756.0 11.0 
121.55 669.0 11.0 
121.6 606.0 10.0 
121.65 527.0 9.0 
121.7 452.0 9.0 
121.75 409.0 8.0 
121.8 376.0 8.0 
121.85 368.0 8.0 
121.9 391.0 8.0 
121.95 400.0 8.0 
122.0 444.0 9.0 
122.05 481.0 9.0 
122.1 518.0 9.0 
122.15 556.0 10.0 
122.2 577.0 10.0 
122.25 575.0 10.0 
122.3 557.0 10.0 
122.35 552.0 10.0 
122.4 562.0 10.0 
122.45 592.0 10.0 
122.5 596.0 10.0 
122.55 583.0 10.0 
122.6 552.0 10.0 
122.65 512.0 9.0 
122.7 482.0 9.0 
122.75 439.0 9.0 
122.8 385.0 8.0 
122.85 342.0 8.0 
122.9 316.0 7.0 
122.95 300.0 7.0 
123.0 287.0 7.0 
123.05 279.0 7.0 
123.1 267.0 7.0 
123.15 269.0 7.0 
123.2 269.0 7.0 
123.25 271.0 7.0 
123.3 261.0 7.0 
123.35 261.0 7.0 
123.4 265.0 7.0 
123.45 252.0 6.0 
123.5 260.0 7.0 
123.55 263.0 7.0 
123.6 265.0 7.0 
123.65 260.0 7.0 
123.7 274.0 7.0 
123.75 267.0 7.0 
123.8 271.0 7.0 
123.85 274.0 7.0 
123.9 269.0 7.0 
123.95 264.0 7.0 
124.0 277.0 7.0 
